-45
-49
-47
-48
-49
-53
-53
-56
-58
-59
-60
-63
-65
-65
-65
-65
-67
-69
-69
-64
-46
-12
35
81
96
68
29
-4
-29
-48
-62
-72
-78
-80
-83
-84
-84
-84
-83
-82
-81
-80
-79
-77
-75
-72
-69
-67
-65
-64
-63
-61
-60
-58
-55
-52
-48
-46
-43
-42
-41
-40
-38
-36
-34
-32
-30
-28
-27
-26
-25
-21
-16
-15
-17
-18
-19
-23
-25
-31
-37
-43
-50
-58
-66
-72
-78
-85
-89
-93
-94
-96
-94
-93
-94
-92
-91
-89
-88
-85
-83
-81
-78
-77
-74
-71
-69
-67
-66
-66
-66
-65
-65
-64
-63
-65
-64
-66
-66
-65
-67
-66
-65
-64
-64
-63
-63
-62
-60
-60
-60
-57
-56
-58
-60
-60
-60
-58
-57
-58
-58
-59
-59
-60
-60
-60
-61
-62
-62
-62
-62
-59
-57
-58
-58
-57
-56
-57
-58
-59
-59
-59
-59
-59
-58
-58
-56
-55
-55
-52
-52
-53
-52
-52
-52
-49
-48
-49
-52
-56
-58
-60
-61
-61
-61
-59
-62
-64
-67
-69
-70
-68
-55
-26
18
67
94
79
39
3
-26
-46
-59
-69
-77
-82
-85
-85
-85
-87
-87
-86
-85
-82
-80
-77
-76
-74
-71
-68
-67
-66
-65
-63
-61
-59
-56
-52
-48
-45
-42
-40
-39
-39
-38
-35
-34
-33
-30
-28
-27
-25
-24
-21
-20
-18
-17
-14
-14
-16
-20
-25
-33
-39
-47
-54
-62
-70
-77
-81
-85
-90
-92
-95
-95
-97
-97
-97
-95
-93
-89
-85
-82
-80
-79
-77
-74
-73
-71
-69
-69
-67
-65
-62
-65
-66
-68
-68
-69
-68
-66
-67
-67
-66
-66
-64
-63
-64
-64
-66
-66
-66
-67
-66
-68
-68
-67
-68
-65
-65
-64
-64
-63
-61
-56
-55
-59
-62
-64
-65
-63
-61
-62
-63
-63
-62
-63
-62
-61
-60
-59
-57
-56
-56
-56
-57
-57
-56
-55
-56
-57
-57
-57
-56
-56
-56
-55
-54
-53
-53
-53
-54
-54
-54
-55
-54
-53
-58
-64
-67
-69
-71
-72
-71
-73
-74
-75
-73
-60
-35
2
51
87
84
46
7
-25
-48
-62
-72
-78
-84
-87
-88
-90
-90
-88
-87
-85
-81
-80
-77
-74
-74
-72
-72
-71
-68
-67
-66
-66
-66
-63
-61
-58
-53
-51
-50
-47
-43
-41
-40
-37
-33
-29
-26
-25
-24
-24
-23
-22
-19
-18
-18
-18
-19
-20
-24
-30
-37
-43
-50
-59
-68
-75
-79
-83
-87
-92
-94
-94
-94
-93
-94
-93
-90
-87
-86
-85
-83
-81
-79
-77
-74
-74
-71
-70
-70
-70
-69
-68
-68
-68
-67
-66
-67
-67
-66
-65
-64
-64
-65
-64
-63
-63
-62
-62
-62
-64
-65
-65
-66
-68
-68
-66
-67
-67
-65
-63
-63
-62
-60
-59
-57
-58
-59
-58
-58
-59
-60
-59
-60
-57
-57
-59
-58
-58
-55
-53
-54
-54
-53
-53
-52
-49
-47
-46
-45
-45
-46
-48
-49
-51
-52
-56
-57
-59
-63
-64
-64
-65
-67
-67
-67
-67
-68
-70
-65
-51
-22
21
68
91
72
33
0
-27
-48
-62
-70
-76
-79
-81
-82
-83
-84
-83
-81
-79
-76
-73
-71
-71
-69
-66
-63
-59
-57
-54
-51
-51
-49
-47
-45
-45
-45
-44
-42
-39
-37
-33
-31
-32
-30
-29
-27
-24
-22
-20
-18
-18
-16
-14
-13
-16
-19
-24
-31
-36
-43
-50
-57
-63
-68
-75
-80
-86
-89
-91
-91
-92
-92
-92
-91
-88
-84
-82
-81
-81
-79
-78
-77
-75
-75
-73
-72
-71
-71
-71
-69
-68
-68
-67
-67
-65
-64
-64
-65
-66
-68
-68
-66
-65
-66
-66
-65
-64
-67
-67
-65
-64
-61
-61
-62
-61
-62
-62
-61
-60
-60
-61
-62
-61
-59
-59
-58
-57
-57
-56
-57
-57
-58
-58
-57
-56
-55
-54
-51
-48
-49
-49
-51
-53
-53
-52
-51
-53
-55
-57
-58
-60
-61
-61
-62
-63
-63
-63
-63
-65
-66
-66
-63
-49
-19
25
72
95
76
37
0
-27
-45
-57
-66
-72
-76
-78
-82
-85
-85
-83
-80
-79
-79
-77
-76
-73
-73
-71
-68
-65
-62
-61
-59
-58
-56
-53
-51
-48
-46
-43
-40
-39
-40
-40
-38
-36
-33
-29
-27
-25
-23
-21
-21
-20
-18
-16
-14
-16
-20
-26
-33
-39
-47
-54
-61
-67
-72
-78
-82
-87
-91
-96
-97
-98
-97
-97
-93
-88
-86
-85
-86
-86
-84
-82
-80
-78
-75
-72
-65
-64
-66
-67
-68
-68
-67
-67
-66
-66
-65
-59
-56
-61
-65
-66
-67
-67
-66
-65
-64
-59
-57
-59
-60
-63
-63
-62
-62
-61
-60
-57
-56
-59
-63
-65
-65
-65
-65
-63
-61
-61
-59
-58
-54
-54
-56
-56
-55
-55
-58
-58
-58
-56
-53
-52
-51
-50
-50
-50
-50
-49
-49
-49
-47
-48
-52
-55
-58
-61
-62
-63
-63
-65
-66
-67
-69
-71
-74
-72
-63
-41
-3
44
86
93
59
19
-14
-38
-54
-63
-65
-70
-79
-86
-88
-91
-90
-88
-85
-82
-79
-75
-73
-73
-73
-72
-72
-70
-67
-66
-63
-54
-50
-52
-54
-54
-52
-49
-48
-45
-40
-34
-32
-32
-30
-28
-26
-23
-20
-19
-13
-6
-9
-15
-18
-21
-25
-29
-34
-41
-46
-51
-58
-65
-72
-78
-82
-87
-89
-90
-90
-92
-95
-93
-91
-91
-89
-87
-85
-83
-79
-76
-74
-74
-73
-73
-71
-70
-68
-68
-69
-68
-67
-65
-65
-64
-65
-67
-68
-68
-67
-66
-65
-66
-67
-65
-65
-65
-66
-65
-65
-65
-63
-64
-66
-66
-65
-64
-64
-64
-64
-65
-65
-65
-62
-60
-61
-63
-64
-63
-63
-62
-62
-62
-61
-59
-59
-60
-60
-60
-60
-60
-59
-57
-57
-58
-59
-59
-60
-60
-61
-60
-59
-58
-59
-59
-56
-56
-57
-58
-57
-53
-51
-50
-52
-53
-54
-56
-57
-58
-59
-62
-63
-63
-64
-66
-65
-66
-68
-71
-72
-64
-44
-10
35
80
91
60
19
-12
-36
-53
-65
-73
-78
-82
-85
-86
-85
-86
-83
-83
-82
-80
-79
-79
-80
-81
-79
-74
-71
-70
-69
-66
-63
-62
-60
-58
-55
-52
-50
-46
-43
-42
-41
-38
-34
-34
-35
-33
-32
-28
-26
-23
-21
-20
-17
-17
-17
-17
-19
-24
-32
-41
-49
-56
-63
-69
-76
-82
-86
-90
-93
-94
-94
-95
-93
-92
-92
-89
-87
-85
-82
-81
-79
-78
-78
-76
-75
-73
-71
-70
-70
-69
-68
-70
-70
-70
-69
-68
-68
-66
-63
-63
-65
-66
-67
-65
-64
-62
-60
-61
-61
-63
-63
-62
-62
-62
-62
-62
-61
-62
-62
-62
-63
-63
-63
-63
-63
-63
-62
-61
-61
-60
-59
-58
-58
-57
-55
-55
-53
-52
-52
-53
-53
-52
-52
-50
-50
-50
-51
-53
-53
-53
-52
-50
-50
-48
-48
-48
-47
-47
-49
-51
-55
-58
-59
-60
-60
-60
-60
-60
-61
-63
-65
-65
-60
-45
-17
25
70
90
68
30
-2
-27
-46
-60
-69
-77
-79
-81
-84
-84
-84
-83
-79
-78
-76
-75
-73
-71
-70
-69
-65
-62
-61
-59
-55
-52
-52
-50
-50
-49
-46
-44
-42
-40
-39
-37
-35
-32
-29
-27
-21
-19
-19
-19
-18
-15
-14
-13
-14
-15
-19
-23
-26
-33
-42
-49
-57
-65
-71
-74
-77
-83
-88
-92
-92
-92
-91
-91
-88
-88
-89
-88
-85
-84
-83
-80
-78
-77
-75
-72
-72
-73
-72
-71
-70
-70
-70
-70
-69
-68
-67
-66
-66
-65
-65
-66
-67
-65
-65
-65
-65
-65
-65
-66
-65
-64
-61
-61
-63
-63
-61
-59
-58
-60
-59
-60
-59
-59
-59
-59
-57
-58
-58
-58
-56
-56
-56
-56
-54
-54
-55
-54
-54
-53
-51
-49
-48
-49
-49
-50
-48
-47
-46
-44
-45
-48
-50
-51
-53
-55
-55
-57
-59
-61
-62
-63
-63
-63
-67
-72
-74
-72
-61
-35
5
52
91
93
57
18
-14
-39
-54
-62
-68
-72
-75
-78
-78
-81
-83
-83
-82
-81
-79
-77
-74
-72
-69
-66
-63
-63
-61
-59
-59
-57
-56
-55
-52
-49
-46
-41
-39
-37
-35
-33
-33
-33
-31
-29
-27
-24
-20
-19
-19
-19
-17
-18
-18
-17
-20
-24
-28
-36
-43
-53
-62
-68
-74
-77
-82
-87
-91
-94
-95
-96
-98
-97
-96
-94
-92
-89
-84
-82
-83
-81
-81
-79
-75
-74
-73
-70
-69
-67
-67
-66
-65
-64
-64
-62
-62
-61
-60
-63
-65
-66
-65
-64
-64
-63
-63
-64
-64
-64
-64
-63
-63
-63
-62
-60
-58
-58
-58
-59
-59
-59
-61
-62
-62
-62
-61
-61
-60
-60
-58
-58
-57
-57
-58
-58
-58
-58
-57
-55
-56
-58
-59
-59
-60
-59
-58
-57
-55
-54
-53
-51
-48
-48
-47
-46
-47
-49
-51
-54
-56
-57
-58
-61
-64
-64
-65
-65
-64
-65
-65
-67
-66
-59
-40
-6
42
87
99
71
30
-5
-30
-47
-61
-72
-79
-84
-86
-88
-88
-87
-86
-85
-84
-81
-79
-77
-74
-72
-67
-67
-65
-62
-61
-60
-60
-60
-58
-57
-55
-51
-48
-46
-45
-44
-43
-40
-36
-34
-31
-28
-24
-20
-19
-19
-18
-17
-16
-16
-16
-18
-23
-29
-36
-42
-50
-57
-64
-73
-79
-84
-88
-92
-95
-96
-96
-97
-97
-96
-95
-93
-91
-88
-86
-82
-78
-76
-75
-75
-72
-71
-70
-70
-69
-70
-68
-67
-66
-65
-65
-65
-65
-64
-64
-63
-62
-62
-63
-62
-61
-62
-65
-63
-63
-63
-64
-64
-64
-62
-61
-60
-62
-62
-62
-62
-62
-62
-62
-61
-61
-60
-59
-58
-59
-58
-59
-59
-56
-57
-58
-60
-60
-60
-60
-60
-59
-60
-60
-60
-60
-60
-60
-59
-59
-60
-61
-61
-59
-60
-60
-60
-59
-58
-57
-55
-54
-53
-51
-52
-51
-51
-54
-55
-56
-57
-59
-61
-62
-62
-63
-64
-63
-63
-63
-63
-66
-71
-69
-64
-54
-30
11
58
89
79
39
2
-26
-46
-59
-68
-74
-77
-81
-85
-88
-88
-87
-84
-83
-82
-80
-78
-75
-74
-70
-68
-65
-61
-60
-59
-57
-56
-53
-52
-50
-47
-46
-45
-44
-42
-38
-36
-38
-38
-36
-33
-31
-29
-26
-24
-21
-20
-18
-16
-16
-18
-21
-25
-31
-37
-45
-53
-61
-69
-74
-80
-84
-85
-89
-92
-93
-92
-93
-94
-93
-91
-91
-89
-88
-84
-82
-82
-80
-79
-75
-75
-74
-72
-70
-69
-69
-68
-67
-65
-66
-68
-69
-70
-68
-68
-67
-66
-64
-64
-63
-63
-63
-62
-60
-63
-65
-65
-64
-63
-62
-60
-61
-62
-62
-63
-63
-63
-62
-62
-62
-61
-61
-59
-60
-62
-61
-61
-60
-58
-55
-55
-56
-57
-59
-59
-58
-58
-59
-60
-61
-61
-58
-56
-56
-56
-56
-55
-53
-51
-48
-47
-48
-50
-50
-51
-51
-51
-54
-55
-58
-59
-62
-62
-62
-63
-62
-62
-63
-66
-66
-62
-46
-19
22
67
89
69
30
-2
-27
-46
-60
-67
-73
-78
-80
-80
-81
-80
-77
-75
-76
-76
-74
-72
-68
-66
-64
-63
-60
-59
-57
-54
-53
-52
-50
-46
-45
-44
-41
-37
-38
-39
-38
-35
-32
-31
-30
-28
-25
-22
-20
-16
-14
-13
-13
-13
-14
-17
-22
-27
-33
-40
-47
-55
-63
-69
-73
-78
-83
-88
-91
-91
-91
-92
-91
-89
-89
-89
-87
-85
-80
-77
-77
-76
-73
-71
-70
-69
-69
-69
-68
-67
-67
-66
-64
-64
-65
-66
-64
-64
-65
-65
-64
-63
-63
-63
-62
-61
-62
-62
-60
-60
-59
-58
-59
-59
-59
-59
-59
-59
-61
-62
-61
-62
-62
-64
-63
-62
-60
-59
-59
-58
-60
-58
-58
-58
-58
-58
-57
-56
-56
-55
-52
-51
-51
-51
-52
-51
-50
-48
-48
-47
-47
-48
-48
-50
-52
-54
-58
-57
-58
-58
-57
-58
-59
-65
-69
-70
-67
-54
-28
13
62
93
84
45
8
-21
-41
-55
-62
-68
-72
-75
-80
-83
-83
-82
-82
-83
-83
-82
-80
-78
-75
-72
-70
-69
-66
-62
-58
-55
-53
-52
-51
-49
-46
-45
-44
-41
-38
-38
-38
-38
-36
-34
-31
-28
-25
-24
-21
-19
-19
-19
-19
-21
-23
-27
-32
-38
-41
-47
-53
-61
-70
-76
-81
-85
-90
-93
-94
-96
-95
-95
-95
-95
-94
-93
-91
-87
-83
-83
-83
-81
-80
-78
-75
-73
-72
-71
-70
-68
-68
-68
-68
-66
-63
-63
-63
-63
-65
-64
-65
-66
-66
-66
-66
-64
-64
-65
-65
-64
-63
-61
-59
-60
-58
-60
-61
-62
-63
-63
-63
-62
-61
-60
-58
-56
-57
-59
-60
-61
-59
-59
-58
-59
-58
-55
-50
-51
-56
-58
-59
-59
-58
-57
-55
-53
-50
-49
-50
-47
-46
-46
-47
-49
-49
-50
-49
-48
-51
-54
-58
-63
-66
-66
-66
-66
-64
-64
-68
-67
-59
-40
-6
41
83
91
60
19
-11
-36
-54
-64
-72
-78
-82
-84
-84
-84
-82
-81
-81
-81
-79
-76
-75
-74
-74
-71
-69
-66
-65
-63
-63
-62
-60
-56
-53
-51
-50
-48
-46
-45
-42
-40
-37
-35
-34
-31
-29
-28
-25
-23
-20
-19
-19
-19
-20
-22
-24
-29
-35
-43
-49
-57
-62
-69
-76
-79
-83
-88
-93
-97
-98
-98
-93
-92
-94
-94
-94
-91
-90
-89
-86
-83
-82
-81
-81
-78
-74
-73
-72
-69
-67
-67
-66
-69
-73
-72
-71
-73
-73
-74
-72
-71
-68
-68
-68
-68
-66
-66
-68
-70
-69
-66
-66
-66
-68
-68
-69
-69
-69
-68
-68
-67
-66
-64
-65
-64
-64
-63
-61
-59
-58
-58
-60
-61
-62
-62
-61
-61
-59
-58
-56
-58
-59
-58
-57
-57
-55
-54
-52
-50
-47
-47
-46
-45
-46
-48
-48
-50
-51
-55
-57
-59
-62
-65
-66
-67
-66
-66
-66
-66
-69
-67
-58
-39
-5
42
83
90
59
19
-12
-36
-55
-67
-74
-80
-84
-85
-87
-88
-87
-83
-82
-80
-79
-80
-77
-76
-73
-70
-69
-68
-66
-63
-60
-57
-55
-52
-51
-50
-48
-48
-44
-42
-42
-40
-39
-37
-35
-32
-28
-28
-27
-26
-24
-22
-20
-18
-18
-20
-21
-25
-32
-38
-44
-50
-56
-66
-75
-79
-81
-87
-93
-95
-95
-95
-95
-96
-95
-92
-89
-88
-87
-85
-81
-77
-76
-73
-70
-70
-69
-68
-67
-67
-68
-66
-67
-67
-67
-65
-64
-63
-62
-62
-62
-61
-60
-60
-61
-63
-63
-61
-61
-63
-66
-67
-66
-65
-64
-64
-63
-63
-61
-59
-59
-57
-57
-57
-59
-58
-58
-57
-54
-55
-56
-57
-57
-56
-55
-54
-52
-51
-50
-49
-47
-46
-45
-44
-45
-45
-44
-43
-44
-47
-49
-51
-53
-56
-58
-59
-58
-59
-61
-63
-66
-67
-65
-56
-34
3
50
87
88
53
15
-17
-40
-54
-62
-69
-76
-81
-83
-86
-87
-84
-83
-81
-80
-77
-75
-73
-69
-67
-65
-63
-62
-59
-55
-54
-52
-49
-49
-48
-45
-43
-41
-39
-39
-39
-39
-37
-34
-32
-30
-28
-27
-25
-21
-20
-20
-19
-18
-17
-21
-27
-32
-38
-45
-49
-55
-63
-69
-76
-80
-83
-88
-91
-92
-93
-91
-91
-91
-89
-86
-85
-85
-86
-84
-83
-82
-79
-75
-73
-73
-72
-71
-68
-66
-64
-63
-61
-61
-59
-57
-59
-63
-65
-66
-66
-67
-66
-66
-66
-65
-63
-63
-61
-60
-60
-60
-61
-61
-60
-58
-58
-56
-57
-59
-60
-61
-61
-61
-61
-62
-61
-60
-56
-55
-57
-59
-58
-57
-57
-56
-53
-52
-51
-51
-51
-51
-50
-50
-48
-47
-48
-49
-50
-50
-53
-57
-60
-62
-65
-67
-66
-66
-65
-67
-68
-70
-68
-62
-46
-14
34
79
96
72
28
-8
-33
-51
-65
-72
-77
-81
-83
-87
-88
-87
-84
-83
-81
-83
-82
-79
-78
-77
-76
-74
-71
-69
-66
-64
-59
-57
-57
-56
-52
-48
-45
-41
-40
-40
-39
-38
-35
-32
-31
-30
-27
-25
-23
-22
-20
-18
-17
-17
-18
-21
-24
-30
-38
-45
-51
-57
-64
-70
-78
-82
-86
-89
-92
-93
-92
-91
-93
-92
-91
-89
-86
-82
-80
-80
-79
-78
-76
-76
-74
-72
-70
-68
-67
-65
-62
-62
-62
-62
-61
-63
-64
-63
-61
-60
-61
-61
-61
-62
-63
-63
-62
-62
-61
-62
-62
-61
-61
-60
-58
-59
-60
-59
-59
-61
-60
-60
-60
-61
-62
-60
-59
-58
-58
-57
-57
-58
-57
-57
-56
-56
-57
-57
-57
-57
-58
-57
-57
-58
-56
-56
-55
-55
-53
-52
-49
-47
-50
-51
-53
-52
-51
-51
-51
-52
-53
-54
-56
-58
-61
-63
-64
-65
-65
-64
-65
-66
-68
-72
-75
-75
-72
-58
-30
13
61
88
72
32
-4
-31
-49
-61
-71
-78
-82
-84
-85
-86
-87
-85
-84
-82
-82
-82
-81
-82
-80
-79
-76
-74
-71
-67
-63
-61
-60
-58
-56
-52
-48
-46
-45
-42
-43
-43
-44
-44
-42
-38
-36
-32
-30
-26
-25
-24
-21
-19
-16
-16
-18
-19
-23
-30
-37
-42
-52
-61
-71
-77
-82
-88
-89
-93
-94
-94
-95
-94
-94
-92
-91
-90
-87
-82
-82
-80
-79
-80
-79
-79
-77
-75
-74
-72
-71
-69
-69
-67
-66
-67
-66
-66
-64
-63
-63
-66
-67
-68
-67
-65
-67
-68
-68
-68
-67
-67
-66
-65
-64
-63
-62
-63
-61
-61
-61
-60
-62
-61
-61
-61
-60
-61
-61
-61
-61
-61
-60
-58
-56
-56
-57
-57
-56
-58
-59
-57
-57
-57
-58
-58
-58
-57
-60
-59
-60
-59
-57
-57
-55
-52
-52
-51
-49
-48
-47
-47
-48
-51
-50
-50
-53
-55
-58
-62
-65
-66
-65
-65
-65
-68
-69
-70
-70
-66
-50
-20
25
71
90
70
31
-1
-26
-47
-61
-70
-75
-79
-80
-81
-82
-83
-82
-81
-81
-80
-77
-75
-72
-70
-70
-68
-63
-61
-61
-59
-57
-54
-52
-49
-48
-49
-47
-43
-40
-40
-40
-38
-34
-32
-30
-28
-26
-24
-21
-20
-19
-15
-13
-14
-15
-16
-20
-27
-35
-41
-49
-56
-62
-68
-73
-77
-81
-86
-88
-91
-92
-91
-90
-88
-86
-86
-85
-83
-81
-79
-78
-76
-74
-74
-70
-68
-67
-67
-65
-65
-64
-63
-63
-62
-62
-63
-66
-66
-65
-65
-65
-66
-66
-66
-65
-66
-64
-63
-62
-61
-61
-61
-61
-60
-59
-59
-59
-59
-59
-60
-62
-62
-62
-62
-61
-59
-59
-59
-57
-57
-56
-56
-55
-53
-54
-53
-52
-52
-54
-55
-56
-56
-57
-55
-55
-55
-54
-54
-54
-51
-50
-48
-47
-47
-47
-47
-45
-44
-44
-45
-48
-52
-55
-56
-59
-61
-62
-63
-65
-65
-65
-64
-66
-69
-64
-48
-21
22
70
96
79
39
5
-22
-43
-56
-65
-70
-74
-78
-80
-81
-82
-82
-81
-80
-80
-79
-76
-73
-73
-72
-69
-69
-66
-64
-60
-55
-54
-52
-51
-49
-48
-46
-44
-43
-42
-44
-42
-40
-38
-36
-34
-30
-29
-26
-22
-20
-18
-17
-18
-18
-20
-23
-27
-33
-41
-48
-56
-62
-70
-76
-82
-86
-89
-92
-93
-92
-91
-89
-90
-90
-88
-87
-86
-84
-81
-82
-81
-79
-76
-74
-75
-74
-72
-71
-68
-64
-63
-64
-65
-66
-64
-64
-64
-64
-64
-65
-65
-67
-68
-69
-68
-67
-65
-65
-65
-64
-63
-63
-62
-60
-59
-62
-65
-65
-64
-64
-66
-64
-63
-62
-61
-60
-59
-59
-59
-59
-57
-56
-58
-59
-59
-58
-55
-56
-56
-56
-56
-56
-57
-57
-56
-56
-55
-56
-56
-56
-56
-58
-58
-58
-56
-56
-55
-52
-52
-49
-51
-50
-49
-50
-50
-51
-52
-52
-53
-54
-56
-59
-60
-61
-61
-62
-61
-63
-65
-71
-71
-63
-46
-19
22
68
92
74
35
0
-28
-47
-60
-69
-76
-79
-82
-85
-86
-84
-85
-86
-84
-83
-82
-81
-77
-75
-73
-70
-66
-63
-60
-59
-58
-59
-57
-55
-53
-50
-47
-46
-46
-45
-41
-38
-37
-36
-34
-30
-26
-25
-24
-23
-20
-19
-17
-17
-17
-19
-21
-27
-31
-35
-44
-53
-62
-71
-76
-81
-85
-88
-91
-92
-94
-93
-93
-93
-92
-90
-88
-87
-84
-80
-78
-78
-76
-76
-75
-74
-73
-73
-71
-70
-70
-67
-65
-64
-63
-63
-63
-64
-65
-67
-69
-69
-69
-67
-67
-66
-66
-65
-64
-62
-63
-62
-61
-62
-61
-62
-62
-62
-63
-63
-64
-64
-63
-64
-64
-64
-63
-61
-58
-58
-58
-58
-59
-59
-60
-59
-58
-59
-61
-62
-63
-62
-61
-60
-60
-60
-59
-59
-60
-60
-59
-59
-59
-59
-60
-60
-59
-58
-57
-55
-54
-51
-51
-52
-52
-52
-53
-54
-55
-57
-57
-58
-59
-61
-63
-62
-63
-66
-68
-72
-75
-72
-61
-39
-2
45
84
86
54
14
-18
-41
-57
-67
-74
-76
-80
-84
-85
-86
-86
-86
-85
-85
-84
-82
-79
-77
-76
-75
-72
-68
-65
-62
-61
-59
-56
-55
-52
-52
-51
-49
-49
-47
-46
-42
-41
-40
-39
-36
-33
-30
-27
-24
-21
-19
-18
-16
-16
-19
-23
-26
-30
-36
-43
-51
-58
-65
-72
-77
-82
-88
-92
-93
-93
-95
-96
-94
-93
-91
-89
-87
-84
-84
-83
-82
-82
-80
-79
-77
-75
-74
-72
-69
-67
-67
-67
-66
-64
-64
-65
-65
-65
-63
-62
-62
-64
-66
-66
-66
-67
-66
-64
-64
-64
-63
-64
-64
-63
-61
-61
-60
-60
-62
-63
-60
-58
-58
-60
-61
-59
-60
-61
-61
-60
-61
-62
-62
-61
-59
-58
-57
-58
-58
-56
-55
-55
-54
-54
-53
-51
-50
-50
-49
-49
-49
-49
-47
-46
-49
-48
-50
-53
-55
-56
-58
-58
-59
-61
-61
-62
-62
-65
-66
-59
-44
-15
28
73
91
71
32
-1
-27
-48
-62
-71
-77
-80
-81
-82
-80
-80
-80
-77
-77
-77
-75
-73
-72
-69
-68
-65
-62
-60
-58
-55
-55
-54
-50
-49
-49
-47
-44
-40
-38
-35
-35
-33
-32
-31
-30
-27
-27
-24
-20
-18
-18
-18
-19
-18
-19
-21
-24
-28
-32
-39
-44
-54
-61
-66
-71
-76
-80
-82
-87
-91
-92
-92
-92
-90
-89
-87
-85
-84
-84
-82
-80
-77
-76
-75
-72
-70
-71
-70
-67
-66
-66
-66
-66
-69
-69
-68
-68
-68
-67
-67
-67
-67
-67
-68
-67
-68
-66
-65
-64
-64
-63
-63
-61
-60
-61
-62
-61
-62
-62
-63
-62
-63
-62
-61
-60
-59
-60
-58
-57
-55
-56
-55
-55
-56
-56
-56
-54
-55
-55
-56
-55
-52
-49
-49
-49
-48
-48
-49
-49
-49
-52
-55
-56
-57
-58
-59
-60
-59
-59
-62
-64
-69
-71
-69
-59
-40
-5
42
83
88
55
17
-14
-36
-50
-63
-73
-80
-84
-87
-88
-87
-84
-83
-82
-83
-82
-81
-79
-77
-76
-73
-70
-63
-58
-56
-58
-59
-59
-57
-55
-53
-50
-47
-44
-43
-42
-41
-39
-37
-32
-27
-24
-23
-23
-23
-22
-20
-19
-17
-16
-16
-18
-22
-29
-37
-46
-52
-57
-63
-68
-75
-84
-91
-94
-96
-97
-96
-94
-94
-90
-88
-86
-85
-84
-82
-79
-78
-77
-74
-70
-65
-68
-71
-71
-71
-69
-67
-67
-65
-63
-62
-63
-65
-65
-64
-62
-63
-64
-61
-60
-63
-65
-67
-66
-66
-66
-64
-63
-61
-60
-60
-60
-60
-60
-61
-61
-62
-61
-60
-60
-60
-61
-63
-64
-65
-63
-60
-59
-58
-58
-56
-52
-54
-55
-55
-53
-51
-49
-50
-50
-51
-50
-48
-49
-50
-51
-52
-54
-58
-59
-61
-63
-64
-65
-63
-64
-65
-66
-69
-72
-72
-66
-48
-15
30
77
94
69
27
-7
-31
-50
-61
-70
-76
-79
-82
-84
-85
-85
-85
-85
-83
-80
-78
-74
-71
-72
-73
-71
-67
-64
-63
-61
-59
-55
-54
-52
-51
-49
-48
-45
-41
-37
-36
-35
-34
-31
-30
-26
-25
-23
-22
-21
-19
-19
-18
-18
-17
-21
-26
-31
-37
-45
-52
-61
-68
-76
-81
-86
-89
-93
-96
-98
-100
-100
-98
-98
-96
-93
-92
-88
-85
-84
-83
-82
-79
-76
-76
-75
-74
-72
-71
-70
-71
-71
-71
-71
-70
-69
-69
-68
-67
-66
-66
-66
-67
-66
-66
-66
-65
-64
-64
-65
-65
-63
-62
-64
-64
-66
-66
-67
-66
-65
-63
-61
-60
-61
-62
-61
-60
-60
-61
-63
-64
-64
-64
-60
-59
-61
-60
-59
-57
-57
-59
-58
-58
-56
-57
-58
-58
-57
-53
-53
-51
-50
-50
-52
-51
-51
-52
-53
-55
-56
-57
-58
-61
-63
-64
-65
-66
-65
-65
-69
-71
-71
-63
-46
-16
30
73
88
64
23
-9
-35
-54
-65
-74
-79
-82
-84
-87
-88
-86
-83
-84
-82
-81
-80
-78
-75
-72
-71
-70
-68
-65
-63
-60
-58
-54
-50
-47
-46
-47
-49
-47
-45
-44
-41
-39
-36
-34
-33
-29
-25
-23
-20
-19
-16
-13
-12
-13
-14
-16
-21
-26
-32
-40
-49
-56
-63
-71
-78
-83
-87
-90
-90
-91
-90
-90
-88
-86
-87
-88
-87
-86
-86
-83
-81
-79
-78
-76
-74
-73
-71
-70
-69
-67
-66
-65
-65
-65
-64
-62
-63
-65
-66
-65
-66
-67
-66
-66
-66
-66
-64
-63
-62
-60
-61
-60
-61
-59
-58
-58
-57
-57
-56
-56
-55
-55
-56
-57
-56
-55
-55
-56
-55
-54
-54
-52
-49
-49
-50
-52
-53
-52
-50
-51
-51
-52
-51
-50
-48
-48
-47
-46
-46
-46
-46
-46
-47
-49
-51
-52
-54
-57
-59
-60
-60
-61
-61
-64
-68
-72
-71
-66
-51
-21
22
69
93
77
38
4
-23
-41
-55
-65
-72
-79
-82
-84
-86
-86
-85
-83
-79
-77
-76
-73
-71
-69
-68
-67
-65
-61
-57
-54
-53
-52
-51
-51
-51
-50
-47
-43
-41
-40
-36
-34
-32
-32
-28
-26
-24
-21
-19
-20
-19
-20
-19
-18
-18
-21
-25
-29
-34
-40
-46
-54
-63
-70
-75
-81
-86
-90
-91
-94
-94
-94
-94
-95
-95
-94
-92
-89
-87
-82
-82
-81
-81
-78
-76
-72
-71
-70
-68
-66
-62
-62
-63
-64
-64
-62
-63
-61
-61
-62
-63
-63
-64
-64
-64
-64
-63
-63
-63
-63
-62
-61
-62
-62
-62
-63
-61
-62
-62
-62
-62
-62
-60
-60
-60
-62
-62
-62
-62
-59
-57
-57
-57
-58
-57
-56
-57
-57
-56
-56
-56
-54
-54
-55
-56
-54
-53
-51
-49
-48
-49
-49
-49
-47
-48
-49
-51
-52
-52
-52
-54
-55
-58
-60
-59
-61
-64
-64
-65
-67
-70
-70
-72
-69
-56
-28
16
64
95
83
42
5
-23
-44
-56
-65
-72
-77
-79
-83
-86
-87
-87
-87
-86
-84
-83
-81
-79
-78
-76
-75
-73
-71
-68
-66
-61
-57
-52
-48
-47
-47
-46
-47
-46
-43
-40
-39
-37
-34
-31
-29
-26
-22
-20
-20
-18
-15
-14
-15
-18
-20
-22
-28
-33
-40
-47
-54
-62
-67
-73
-79
-85
-87
-90
-92
-94
-94
-94
-95
-95
-94
-92
-88
-88
-86
-85
-83
-82
-80
-75
-73
-72
-72
-71
-69
-68
-67
-66
-66
-65
-64
-64
-65
-64
-62
-62
-62
-61
-62
-64
-63
-62
-61
-60
-59
-60
-60
-61
-61
-61
-61
-60
-59
-59
-60
-62
-63
-65
-66
-65
-65
-63
-62
-62
-61
-59
-58
-58
-56
-54
-54
-54
-53
-54
-55
-57
-59
-59
-59
-60
-59
-60
-60
-60
-60
-60
-59
-57
-58
-56
-56
-57
-58
-55
-55
-55
-55
-55
-55
-55
-55
-55
-54
-56
-59
-60
-62
-62
-62
-63
-63
-62
-61
-62
-65
-69
-68
-61
-42
-9
39
83
95
64
23
-9
-34
-52
-62
-70
-75
-78
-80
-83
-84
-85
-86
-85
-84
-85
-84
-82
-79
-77
-76
-73
-69
-64
-65
-64
-63
-60
-57
-55
-52
-51
-48
-47
-47
-46
-44
-44
-41
-39
-37
-34
-32
-30
-28
-25
-23
-20
-21
-20
-21
-21
-23
-29
-36
-42
-49
-58
-65
-72
-78
-82
-87
-91
-95
-97
-98
-98
-97
-95
-92
-89
-87
-86
-84
-82
-81
-78
-77
-78
-78
-76
-74
-70
-67
-68
-69
-69
-69
-67
-67
-66
-67
-67
-67
-66
-64
-64
-64
-65
-65
-64
-64
-64
-64
-62
-63
-65
-66
-65
-64
-62
-61
-60
-60
-60
-58
-59
-59
-59
-58
-59
-59
-60
-59
-58
-59
-59
-60
-60
-59
-58
-58
-56
-55
-54
-54
-54
-52
-53
-53
-52
-50
-50
-52
-51
-49
-49
-48
-48
-47
-46
-44
-43
-41
-38
-35
-36
-37
-38
-42
-45
-49
-52
-53
-51
-53
-56
-57
-59
-62
-65
-66
-66
-57
-36
1
46
83
88
55
17
-15
-39
-56
-67
-75
-80
-85
-88
-89
-87
-87
-84
-83
-80
-76
-73
-72
-72
-70
-67
-64
-60
-57
-60
-60
-59
-56
-54
-50
-48
-45
-44
-42
-41
-41
-39
-37
-35
-32
-27
-26
-26
-23
-19
-16
-16
-18
-18
-18
-18
-19
-23
-28
-33
-44
-53
-60
-67
-73
-78
-84
-89
-91
-94
-94
-94
-96
-96
-96
-95
-92
-91
-86
-83
-83
-81
-80
-79
-79
-78
-76
-73
-72
-70
-70
-69
-67
-64
-64
-65
-65
-64
-65
-65
-63
-60
-61
-62
-63
-62
-63
-64
-63
-63
-63
-63
-61
-60
-59
-59
-59
-58
-56
-58
-60
-59
-60
-60
-60
-60
-61
-61
-61
-59
-58
-56
-55
-54
-54
-53
-53
-54
-54
-54
-52
-53
-55
-59
-60
-59
-59
-57
-55
-53
-51
-50
-50
-47
-46
-46
-47
-46
-47
-49
-51
-53
-56
-58
-60
-61
-61
-63
-63
-61
-62
-65
-68
-68
-62
-46
-16
29
75
96
73
33
-2
-29
-48
-61
-69
-73
-79
-82
-86
-86
-87
-85
-84
-83
-82
-80
-76
-73
-71
-70
-70
-69
-65
-60
-60
-61
-60
-56
-53
-52
-51
-49
-47
-44
-43
-39
-38
-34
-31
-30
-30
-27
-25
-24
-21
-18
-15
-16
-17
-18
-21
-24
-27
-31
-36
-43
-52
-58
-66
-73
-79
-82
-83
-86
-90
-92
-93
-95
-95
-95
-94
-92
-87
-83
-81
-80
-79
-77
-74
-72
-70
-70
-69
-69
-67
-67
-67
-67
-68
-68
-68
-67
-66
-65
-65
-66
-67
-66
-66
-64
-64
-65
-66
-64
-65
-64
-65
-65
-65
-64
-65
-65
-64
-63
-62
-63
-63
-63
-63
-64
-64
-64
-64
-62
-60
-61
-60
-61
-61
-59
-57
-57
-56
-56
-56
-55
-56
-56
-56
-55
-55
-54
-54
-56
-57
-54
-55
-55
-56
-53
-52
-49
-48
-47
-46
-47
-45
-47
-50
-51
-53
-55
-57
-59
-61
-63
-63
-63
-64
-64
-64
-65
-67
-68
-62
-43
-11
35
80
96
71
29
-5
-31
-50
-61
-71
-78
-81
-83
-85
-85
-83
-82
-81
-79
-77
-76
-75
-74
-73
-73
-72
-69
-65
-64
-62
-62
-60
-57
-53
-51
-48
-47
-43
-38
-39
-39
-38
-39
-37
-35
-33
-31
-27
-24
-23
-21
-19
-19
-20
-19
-18
-22
-27
-31
-37
-47
-56
-63
-68
-76
-82
-85
-88
-91
-93
-94
-95
-94
-93
-90
-89
-87
-83
-80
-79
-80
-79
-78
-78
-76
-74
-73
-73
-72
-71
-71
-69
-67
-65
-66
-64
-64
-65
-64
-64
-65
-65
-64
-65
-65
-63
-62
-63
-64
-65
-64
-62
-63
-62
-62
-61
-62
-62
-63
-63
-61
-58
-59
-61
-64
-64
-63
-62
-60
-58
-58
-59
-60
-60
-60
-60
-58
-57
-58
-58
-57
-57
-58
-60
-61
-62
-62
-61
-61
-57
-55
-55
-57
-58
-57
-55
-53
-51
-50
-50
-49
-48
-49
-49
-52
-53
-55
-57
-60
-63
-64
-65
-65
-61
-62
-65
-69
-74
-75
-70
-53
-23
24
69
85
58
19
-14
-39
-57
-68
-79
-85
-85
-88
-91
-91
-92
-90
-89
-88
-87
-85
-83
-81
-77
-75
-73
-70
-66
-64
-62
-59
-57
-54
-53
-55
-55
-53
-50
-48
-44
-41
-37
-35
-33
-30
-29
-27
-23
-19
-19
-17
-14
-15
-17
-16
-19
-23
-28
-34
-41
-48
-54
-60
-65
-71
-77
-82
-84
-86
-87
-87
-86
-87
-88
-87
-86
-86
-84
-82
-82
-80
-77
-75
-75
-73
-72
-71
-71
-70
-67
-67
-68
-69
-68
-69
-68
-68
-66
-65
-66
-66
-64
-61
-63
-65
-65
-65
-64
-63
-62
-62
-63
-63
-62
-61
-61
-61
-60
-59
-60
-59
-59
-59
-60
-60
-60
-59
-60
-59
-58
-58
-58
-59
-56
-56
-56
-56
-57
-58
-56
-54
-55
-56
-54
-54
-53
-52
-50
-50
-48
-46
-47
-47
-47
-47
-49
-51
-52
-54
-56
-56
-58
-59
-60
-59
-59
-61
-65
-67
-65
-56
-36
-1
44
83
89
58
22
-7
-33
-51
-63
-68
-71
-75
-79
-83
-84
-82
-80
-78
-76
-73
-71
-70
-69
-66
-65
-64
-62
-59
-58
-56
-52
-51
-52
-51
-50
-49
-47
-46
-44
-43
-41
-39
-36
-34
-31
-29
-28
-25
-23
-21
-19
-18
-18
-19
-21
-24
-25
-29
-35
-42
-49
-55
-63
-67
-71
-76
-82
-86
-89
-89
-90
-89
-88
-86
-85
-84
-84
-84
-83
-81
-79
-79
-76
-74
-73
-74
-72
-71
-71
-71
-69
-70
-70
-70
-69
-69
-68
-67
-66
-67
-66
-65
-64
-65
-66
-67
-67
-66
-66
-65
-64
-64
-62
-59
-56
-57
-60
-62
-63
-62
-60
-59
-61
-60
-60
-59
-58
-57
-57
-57
-56
-56
-56
-54
-51
-51
-51
-53
-54
-54
-52
-49
-49
-49
-49
-50
-49
-48
-49
-51
-52
-54
-56
-56
-56
-60
-64
-65
-65
-66
-67
-69
-69
-59
-37
0
49
90
93
59
21
-9
-34
-50
-61
-69
-76
-82
-83
-85
-84
-83
-82
-83
-82
-81
-79
-76
-72
-69
-68
-66
-65
-62
-60
-58
-56
-54
-53
-51
-48
-45
-43
-42
-42
-40
-37
-35
-33
-30
-27
-25
-22
-21
-19
-18
-16
-16
-15
-13
-14
-17
-23
-30
-38
-45
-52
-60
-67
-73
-79
-83
-88
-91
-93
-92
-93
-92
-91
-90
-88
-87
-86
-85
-83
-81
-78
-77
-76
-75
-73
-72
-69
-69
-68
-70
-70
-71
-69
-68
-68
-67
-68
-67
-67
-67
-67
-65
-66
-67
-66
-66
-66
-65
-66
-65
-67
-66
-65
-64
-64
-63
-63
-62
-63
-63
-62
-60
-61
-62
-63
-62
-61
-60
-59
-56
-58
-61
-61
-61
-59
-58
-58
-57
-56
-54
-57
-57
-57
-54
-53
-52
-51
-49
-48
-50
-51
-51
-49
-50
-54
-57
-59
-62
-61
-60
-63
-64
-64
-62
-64
-68
-72
-72
-66
-51
-22
23
71
94
74
33
0
-26
-46
-59
-69
-75
-80
-83
-84
-85
-87
-87
-83
-82
-82
-80
-76
-75
-74
-73
-73
-71
-67
-64
-61
-60
-58
-57
-54
-50
-48
-46
-43
-41
-39
-39
-38
-35
-31
-28
-27
-25
-23
-21
-19
-16
-15
-14
-13
-12
-14
-19
-24
-28
-36
-47
-55
-62
-68
-74
-80
-85
-89
-92
-94
-94
-94
-93
-91
-91
-88
-83
-82
-82
-83
-83
-82
-79
-77
-76
-75
-73
-70
-69
-68
-68
-69
-69
-66
-65
-64
-64
-64
-65
-66
-67
-68
-67
-67
-67
-67
-66
-64
-64
-64
-64
-64
-62
-60
-60
-61
-60
-62
-62
-62
-62
-61
-62
-62
-62
-61
-59
-57
-54
-53
-53
-53
-53
-51
-51
-52
-55
-58
-59
-59
-59
-60
-59
-59
-58
-58
-58
-57
-57
-56
-58
-57
-56
-55
-55
-56
-55
-54
-53
-51
-49
-49
-50
-51
-51
-51
-53
-57
-61
-62
-63
-64
-64
-64
-65
-68
-69
-69
-70
-63
-44
-8
39
82
93
62
21
-12
-38
-53
-64
-71
-76
-82
-85
-88
-89
-89
-87
-87
-85
-83
-80
-78
-78
-76
-72
-70
-69
-67
-64
-62
-60
-57
-56
-54
-52
-51
-52
-52
-48
-48
-47
-45
-41
-38
-34
-33
-30
-28
-27
-25
-23
-20
-21
-23
-24
-25
-27
-32
-39
-46
-51
-58
-64
-70
-76
-80
-85
-88
-91
-94
-95
-96
-97
-97
-96
-93
-90
-89
-87
-84
-81
-78
-78
-78
-76
-74
-73
-69
-68
-70
-71
-70
-70
-68
-68
-68
-69
-67
-66
-66
-65
-65
-65
-67
-66
-65
-67
-65
-66
-66
-66
-65
-64
-63
-63
-61
-61
-61
-61
-60
-60
-60
-59
-60
-60
-61
-62
-61
-61
-60
-60
-60
-59
-59
-59
-57
-56
-58
-56
-56
-54
-54
-53
-53
-56
-59
-60
-59
-59
-57
-54
-52
-53
-52
-47
-44
-45
-47
-48
-48
-48
-50
-52
-54
-58
-59
-61
-62
-63
-61
-63
-66
-68
-71
-71
-64
-45
-13
33
76
88
61
22
-9
-34
-52
-63
-72
-78
-82
-84
-87
-86
-85
-83
-82
-79
-77
-76
-76
-74
-72
-70
-67
-62
-61
-60
-59
-59
-57
-55
-53
-50
-47
-47
-45
-44
-44
-43
-40
-37
-33
-30
-27
-25
-23
-20
-17
-15
-15
-16
-13
-14
-19
-24
-28
-34
-41
-49
-56
-61
-67
-73
-78
-81
-85
-88
-90
-91
-90
-90
-92
-92
-90
-89
-87
-84
-81
-77
-76
-75
-74
-70
-69
-70
-70
-68
-68
-69
-67
-65
-65
-67
-67
-66
-66
-65
-64
-62
-60
-59
-57
-58
-58
-59
-62
-64
-65
-65
-64
-63
-62
-59
-59
-58
-55
-56
-58
-57
-58
-57
-56
-55
-55
-58
-58
-58
-60
-60
-60
-60
-59
-59
-58
-55
-53
-51
-49
-49
-50
-49
-48
-48
-48
-48
-49
-51
-54
-55
-55
-57
-59
-60
-61
-62
-61
-61
-61
-62
-66
-67
-65
-53
-27
13
58
89
78
38
2
-27
-49
-62
-72
-77
-80
-81
-83
-84
-82
-81
-81
-81
-81
-79
-77
-75
-73
-70
-69
-66
-65
-63
-60
-58
-56
-53
-50
-47
-46
-45
-43
-43
-42
-40
-37
-37
-34
-33
-28
-27
-25
-22
-18
-14
-15
-14
-15
-15
-17
-21
-27
-35
-41
-49
-55
-61
-67
-75
-81
-85
-88
-91
-93
-93
-94
-93
-90
-89
-90
-89
-87
-86
-84
-81
-78
-74
-71
-71
-71
-71
-70
-68
-68
-69
-68
-67
-63
-63
-62
-63
-64
-64
-64
-65
-65
-64
-65
-65
-62
-61
-62
-63
-64
-63
-62
-62
-63
-62
-61
-60
-60
-61
-60
-60
-61
-60
-59
-59
-57
-57
-57
-58
-58
-58
-59
-59
-59
-57
-56
-56
-57
-57
-55
-54
-54
-53
-52
-50
-49
-47
-47
-47
-46
-48
-49
-47
-49
-51
-53
-53
-56
-58
-59
-59
-61
-63
-63
-62
-61
-63
-66
-67
-64
-56
-38
-6
41
84
93
62
21
-12
-37
-53
-64
-71
-75
-78
-84
-87
-87
-86
-83
-83
-85
-85
-84
-82
-79
-76
-74
-72
-69
-68
-64
-61
-58
-56
-53
-50
-47
-47
-45
-44
-44
-43
-42
-41
-38
-36
-33
-30
-28
-25
-21
-17
-13
-11
-11
-15
-15
-17
-21
-29
-36
-44
-51
-58
-65
-73
-77
-82
-86
-87
-88
-85
-81
-84
-88
-90
-93
-95
-94
-92
-90
-87
-83
-80
-78
-75
-73
-69
-66
-65
-64
-68
-69
-68
-66
-66
-66
-69
-70
-69
-69
-67
-66
-66
-65
-62
-61
-62
-64
-64
-63
-63
-64
-64
-64
-64
-65
-67
-66
-65
-65
-63
-61
-58
-59
-60
-60
-62
-63
-62
-60
-61
-62
-62
-60
-57
-56
-57
-56
-56
-55
-55
-54
-53
-54
-55
-56
-56
-54
-53
-55
-58
-59
-58
-59
-57
-54
-53
-51
-51
-52
-51
-50
-50
-50
-49
-48
-50
-52
-55
-59
-60
-61
-62
-63
-63
-61
-62
-63
-66
-70
-69
-56
-30
12
63
95
87
48
9
-23
-45
-59
-69
-75
-77
-80
-82
-85
-86
-84
-83
-83
-84
-82
-81
-80
-78
-74
-72
-71
-70
-69
-67
-66
-64
-60
-54
-51
-48
-49
-50
-49
-46
-45
-44
-43
-40
-37
-35
-32
-28
-25
-23
-22
-22
-20
-19
-18
-18
-19
-24
-32
-41
-47
-54
-61
-67
-75
-80
-85
-88
-89
-89
-91
-94
-96
-96
-95
-90
-88
-87
-87
-87
-86
-85
-83
-79
-76
-75
-71
-69
-67
-67
-68
-68
-70
-70
-68
-68
-70
-69
-67
-67
-66
-66
-66
-66
-67
-65
-65
-66
-67
-65
-62
-64
-65
-65
-64
-65
-65
-62
-62
-63
-62
-61
-61
-60
-59
-56
-57
-58
-60
-59
-58
-59
-58
-59
-59
-57
-57
-57
-57
-57
-58
-59
-57
-57
-55
-55
-55
-55
-53
-53
-52
-52
-52
-51
-52
-52
-51
-49
-47
-48
-47
-48
-48
-50
-52
-56
-58
-59
-60
-60
-60
-63
-64
-65
-66
-67
-69
-67
-55
-32
7
55
89
83
45
8
-20
-42
-56
-68
-74
-79
-82
-84
-86
-86
-84
-83
-83
-81
-80
-77
-73
-72
-71
-68
-67
-66
-65
-63
-61
-60
-58
-55
-53
-51
-49
-46
-44
-42
-40
-37
-34
-34
-32
-28
-25
-24
-22
-21
-21
-21
-19
-18
-18
-17
-20
-25
-29
-35
-41
-50
-58
-64
-70
-75
-80
-83
-85
-88
-90
-90
-91
-90
-89
-88
-86
-84
-82
-80
-76
-75
-76
-75
-73
-72
-70
-69
-70
-70
-68
-66
-65
-64
-64
-64
-63
-61
-61
-62
-61
-59
-60
-62
-61
-60
-61
-62
-63
-61
-60
-60
-61
-60
-61
-60
-59
-62
-62
-62
-62
-60
-58
-58
-56
-57
-59
-60
-60
-59
-58
-58
-58
-57
-56
-56
-57
-58
-58
-58
-56
-52
-49
-52
-56
-59
-61
-61
-63
-60
-57
-54
-53
-51
-51
-51
-51
-52
-53
-53
-54
-54
-54
-52
-57
-64
-66
-66
-66
-65
-64
-65
-66
-68
-70
-65
-51
-22
21
69
95
80
39
3
-25
-46
-61
-71
-77
-82
-85
-86
-85
-84
-83
-80
-79
-78
-77
-75
-75
-73
-70
-68
-67
-65
-63
-63
-60
-56
-53
-51
-50
-50
-49
-46
-44
-43
-40
-37
-34
-32
-30
-28
-25
-21
-18
-14
-13
-15
-15
-15
-16
-18
-22
-27
-34
-40
-47
-53
-59
-66
-72
-80
-85
-88
-92
-94
-95
-94
-94
-93
-94
-94
-94
-92
-89
-86
-83
-81
-81
-78
-76
-74
-74
-72
-70
-70
-69
-69
-70
-68
-66
-67
-68
-67
-66
-67
-66
-65
-65
-65
-64
-64
-63
-64
-65
-64
-61
-60
-61
-62
-61
-60
-60
-60
-59
-58
-58
-58
-58
-58
-58
-58
-58
-56
-55
-56
-57
-58
-59
-59
-60
-60
-59
-59
-60
-59
-57
-55
-56
-57
-58
-58
-60
-59
-58
-58
-59
-58
-56
-57
-58
-58
-57
-57
-57
-57
-56
-54
-51
-47
-47
-49
-50
-50
-53
-56
-56
-58
-59
-61
-60
-60
-60
-61
-64
-66
-68
-63
-51
-24
17
65
95
85
46
8
-21
-43
-58
-68
-73
-77
-80
-80
-82
-84
-82
-82
-84
-85
-82
-80
-77
-75
-76
-75
-71
-68
-64
-63
-62
-60
-56
-53
-52
-50
-47
-46
-45
-45
-45
-43
-39
-36
-33
-32
-30
-27
-25
-22
-20
-17
-16
-13
-13
-15
-16
-21
-25
-36
-46
-53
-61
-68
-74
-80
-85
-88
-90
-93
-95
-95
-94
-93
-93
-89
-85
-84
-86
-87
-86
-84
-82
-80
-78
-76
-74
-72
-72
-71
-70
-70
-69
-66
-64
-61
-61
-64
-65
-67
-66
-65
-65
-64
-64
-64
-65
-64
-65
-65
-66
-66
-65
-61
-62
-61
-62
-62
-62
-61
-60
-58
-58
-57
-57
-57
-56
-55
-55
-54
-54
-55
-56
-56
-56
-58
-59
-59
-59
-59
-58
-57
-58
-58
-58
-57
-56
-56
-57
-57
-58
-57
-56
-56
-55
-53
-54
-55
-55
-54
-53
-51
-49
-49
-50
-50
-52
-53
-54
-55
-56
-56
-58
-60
-59
-60
-61
-62
-64
-66
-69
-71
-70
-63
-47
-15
31
78
96
70
29
-5
-32
-52
-64
-73
-79
-83
-85
-85
-82
-82
-85
-85
-85
-83
-82
-81
-81
-80
-77
-75
-74
-72
-69
-67
-65
-62
-58
-55
-52
-50
-47
-46
-48
-47
-45
-44
-43
-41
-38
-35
-32
-29
-27
-24
-20
-17
-16
-18
-19
-20
-22
-27
-36
-43
-50
-56
-62
-68
-75
-83
-88
-93
-95
-97
-96
-96
-97
-96
-95
-92
-92
-90
-89
-86
-84
-84
-84
-82
-81
-80
-80
-78
-76
-75
-74
-73
-73
-72
-72
-70
-68
-67
-67
-66
-65
-66
-67
-67
-67
-69
-69
-68
-67
-66
-65
-65
-63
-60
-58
-59
-60
-61
-62
-62
-62
-61
-62
-62
-61
-61
-60
-60
-59
-59
-59
-58
-56
-58
-57
-56
-57
-56
-55
-57
-60
-59
-59
-59
-57
-57
-56
-56
-55
-52
-49
-48
-47
-48
-48
-49
-48
-49
-50
-51
-50
-53
-55
-57
-59
-59
-59
-62
-65
-67
-68
-70
-69
-63
-44
-13
28
72
89
64
25
-8
-33
-50
-64
-70
-75
-79
-82
-82
-82
-82
-82
-80
-77
-75
-74
-72
-70
-67
-65
-65
-64
-62
-62
-61
-59
-56
-52
-50
-46
-44
-43
-41
-40
-38
-36
-34
-33
-30
-29
-26
-21
-18
-15
-14
-12
-11
-11
-10
-11
-14
-17
-23
-30
-38
-45
-51
-60
-67
-75
-80
-84
-86
-88
-89
-91
-92
-92
-89
-88
-88
-89
-87
-84
-82
-80
-77
-76
-75
-73
-73
-72
-71
-69
-66
-66
-68
-68
-68
-66
-66
-65
-66
-65
-65
-63
-62
-62
-63
-62
-61
-62
-61
-62
-62
-60
-60
-61
-62
-61
-61
-61
-60
-60
-61
-59
-59
-59
-59
-57
-56
-56
-55
-56
-58
-58
-57
-57
-56
-55
-54
-54
-53
-51
-49
-47
-47
-47
-47
-48
-48
-47
-50
-53
-55
-58
-61
-64
-63
-64
-64
-65
-67
-69
-70
-71
-63
-46
-14
32
76
91
65
23
-10
-33
-51
-62
-71
-74
-78
-81
-83
-85
-85
-85
-84
-82
-80
-77
-76
-74
-72
-69
-66
-63
-62
-59
-56
-53
-52
-50
-49
-48
-48
-47
-45
-41
-38
-36
-35
-34
-33
-31
-28
-25
-22
-20
-16
-12
-11
-12
-14
-18
-23
-27
-34
-39
-45
-51
-59
-64
-71
-79
-85
-90
-93
-95
-96
-95
-91
-88
-86
-88
-90
-89
-87
-86
-85
-82
-78
-73
-72
-71
-72
-71
-70
-68
-65
-66
-64
-61
-60
-60
-59
-60
-63
-64
-64
-64
-64
-63
-64
-64
-62
-63
-64
-64
-62
-61
-62
-63
-62
-60
-61
-62
-63
-63
-63
-62
-63
-63
-63
-61
-60
-61
-62
-59
-58
-58
-60
-60
-59
-58
-59
-58
-57
-56
-55
-54
-52
-52
-51
-49
-49
-49
-48
-48
-49
-49
-51
-53
-55
-56
-59
-61
-63
-64
-64
-64
-65
-66
-69
-70
-64
-48
-16
30
78
97
75
34
0
-26
-45
-60
-71
-78
-82
-85
-86
-86
-84
-83
-83
-82
-80
-76
-76
-74
-71
-68
-68
-65
-63
-62
-62
-60
-57
-55
-51
-47
-46
-43
-42
-42
-41
-39
-34
-33
-34
-31
-29
-25
-22
-20
-17
-17
-16
-16
-15
-15
-17
-21
-26
-32
-40
-47
-55
-62
-68
-74
-78
-84
-89
-91
-94
-94
-94
-94
-93
-93
-92
-90
-89
-89
-86
-84
-83
-82
-80
-78
-75
-73
-73
-72
-70
-68
-68
-68
-68
-68
-67
-65
-66
-66
-66
-67
-67
-66
-66
-64
-63
-60
-60
-62
-64
-65
-65
-66
-65
-64
-64
-62
-61
-62
-61
-60
-59
-59
-60
-58
-58
-58
-57
-56
-56
-57
-59
-58
-58
-59
-59
-60
-60
-60
-60
-58
-55
-54
-54
-54
-54
-54
-55
-56
-57
-56
-56
-54
-52
-53
-52
-51
-49
-49
-49
-48
-48
-49
-52
-55
-57
-61
-62
-63
-65
-66
-66
-67
-65
-64
-67
-71
-71
-65
-48
-14
35
80
96
68
27
-6
-30
-48
-61
-70
-77
-80
-83
-85
-86
-85
-85
-84
-82
-80
-79
-76
-74
-73
-72
-70
-69
-66
-64
-63
-61
-58
-54
-53
-52
-50
-47
-44
-44
-45
-44
-42
-38
-35
-34
-32
-30
-26
-21
-18
-17
-17
-15
-13
-14
-16
-19
-24
-30
-38
-45
-53
-61
-67
-72
-77
-83
-86
-88
-90
-91
-89
-90
-90
-91
-90
-88
-84
-82
-81
-82
-81
-81
-80
-78
-77
-74
-72
-70
-70
-69
-66
-66
-67
-65
-64
-66
-67
-64
-64
-66
-67
-67
-66
-64
-63
-63
-63
-64
-64
-63
-62
-63
-63
-61
-59
-58
-62
-64
-66
-66
-65
-64
-64
-63
-62
-59
-58
-58
-59
-59
-56
-55
-56
-55
-52
-51
-55
-59
-60
-61
-59
-59
-60
-58
-58
-59
-58
-57
-56
-55
-56
-58
-59
-60
-60
-58
-57
-58
-58
-59
-60
-60
-59
-58
-57
-55
-56
-55
-54
-54
-53
-52
-52
-53
-54
-56
-58
-57
-59
-62
-64
-65
-66
-65
-67
-69
-69
-71
-71
-62
-43
-7
40
81
87
55
15
-16
-38
-52
-64
-73
-79
-83
-85
-86
-85
-85
-86
-84
-81
-79
-78
-76
-73
-71
-70
-68
-67
-65
-61
-60
-57
-55
-55
-53
-51
-50
-49
-48
-46
-45
-43
-40
-38
-36
-33
-31
-29
-26
-24
-22
-20
-18
-18
-19
-19
-22
-27
-31
-35
-42
-49
-56
-62
-69
-75
-78
-82
-86
-91
-92
-93
-92
-90
-90
-90
-91
-90
-89
-85
-82
-80
-79
-76
-77
-77
-76
-74
-71
-68
-66
-67
-68
-68
-67
-68
-68
-67
-68
-66
-66
-66
-66
-64
-64
-63
-63
-63
-64
-65
-64
-63
-64
-65
-64
-64
-62
-61
-60
-57
-56
-57
-58
-57
-56
-56
-57
-57
-56
-57
-57
-56
-56
-56
-56
-57
-57
-57
-58
-54
-52
-54
-55
-56
-57
-58
-58
-58
-57
-55
-55
-53
-53
-53
-52
-51
-49
-47
-42
-40
-43
-47
-50
-53
-55
-55
-57
-59
-58
-58
-58
-57
-58
-58
-59
-61
-63
-61
-49
-23
16
62
91
81
43
6
-22
-43
-56
-65
-72
-78
-80
-81
-81
-80
-78
-77
-72
-65
-65
-71
-72
-71
-69
-68
-66
-64
-61
-59
-56
-53
-52
-52
-48
-47
-46
-45
-41
-38
-36
-34
-32
-30
-27
-26
-25
-23
-22
-20
-19
-16
-14
-15
-16
-17
-20
-23
-28
-37
-44
-51
-60
-68
-74
-79
-84
-87
-87
-88
-90
-91
-93
-92
-92
-89
-85
-83
-83
-82
-79
-78
-79
-79
-77
-75
-73
-70
-68
-68
-68
-69
-69
-65
-64
-64
-63
-64
-67
-68
-67
-66
-66
-66
-66
-65
-65
-65
-65
-63
-62
-61
-62
-62
-61
-59
-59
-59
-62
-63
-64
-64
-64
-63
-63
-62
-60
-60
-58
-57
-56
-54
-53
-53
-54
-55
-54
-54
-54
-55
-56
-56
-56
-55
-54
-51
-50
-52
-52
-52
-49
-48
-48
-48
-49
-51
-51
-52
-55
-57
-58
-60
-61
-61
-62
-64
-64
-64
-67
-71
-71
-66
-52
-24
19
68
95
80
41
5
-24
-45
-59
-66
-71
-77
-83
-86
-87
-88
-87
-87
-86
-85
-82
-79
-76
-76
-75
-73
-67
-64
-62
-61
-60
-57
-54
-53
-51
-49
-48
-46
-44
-42
-41
-38
-34
-32
-31
-29
-26
-25
-24
-23
-19
-17
-17
-19
-19
-21
-25
-29
-33
-38
-44
-53
-61
-68
-75
-81
-85
-87
-90
-91
-90
-91
-91
-91
-92
-91
-91
-89
-87
-84
-83
-82
-82
-80
-78
-77
-75
-72
-70
-68
-65
-63
-62
-64
-65
-65
-65
-64
-62
-63
-65
-66
-66
-66
-67
-65
-65
-64
-63
-62
-63
-64
-64
-62
-60
-61
-64
-64
-63
-63
-63
-62
-61
-60
-59
-58
-58
-58
-57
-57
-55
-56
-59
-58
-57
-59
-60
-61
-62
-62
-60
-59
-57
-58
-59
-57
-54
-53
-53
-53
-55
-58
-58
-57
-56
-55
-54
-54
-54
-54
-51
-50
-48
-47
-48
-49
-48
-46
-51
-55
-56
-58
-61
-62
-61
-62
-63
-63
-65
-69
-67
-60
-44
-16
29
77
98
76
35
0
-29
-48
-63
-72
-78
-81
-84
-85
-82
-81
-81
-81
-79
-77
-77
-75
-74
-72
-71
-70
-68
-68
-67
-64
-62
-60
-56
-54
-51
-51
-50
-47
-45
-43
-43
-41
-40
-37
-34
-32
-31
-29
-26
-21
-18
-16
-14
-14
-16
-18
-20
-22
-28
-37
-45
-53
-60
-66
-71
-77
-81
-85
-86
-89
-91
-92
-92
-91
-91
-90
-88
-87
-85
-84
-83
-82
-79
-77
-76
-75
-73
-73
-73
-70
-71
-70
-68
-66
-65
-65
-66
-69
-70
-71
-71
-68
-66
-63
-64
-65
-63
-63
-62
-63
-63
-62
-61
-63
-64
-64
-63
-63
-62
-62
-64
-64
-63
-62
-62
-61
-59
-58
-58
-59
-59
-61
-61
-61
-60
-59
-61
-61
-60
-61
-62
-61
-61
-60
-58
-57
-58
-58
-58
-56
-57
-57
-57
-57
-55
-56
-56
-54
-53
-53
-53
-53
-52
-51
-53
-53
-52
-55
-57
-61
-62
-63
-63
-63
-63
-63
-63
-63
-66
-68
-69
-63
-47
-16
29
75
93
70
29
-3
-29
-48
-61
-72
-76
-80
-83
-86
-86
-86
-85
-84
-83
-81
-80
-79
-76
-74
-73
-71
-70
-70
-68
-65
-62
-60
-60
-59
-58
-56
-54
-50
-48
-48
-47
-45
-42
-37
-34
-34
-32
-30
-28
-25
-21
-20
-20
-18
-18
-21
-24
-27
-33
-39
-46
-54
-61
-68
-73
-78
-82
-85
-87
-89
-92
-93
-94
-93
-91
-88
-87
-87
-87
-85
-81
-78
-77
-76
-75
-73
-72
-70
-68
-66
-65
-63
-63
-63
-64
-63
-63
-63
-64
-67
-68
-69
-67
-67
-68
-69
-67
-66
-64
-63
-63
-62
-62
-61
-61
-60
-60
-60
-60
-59
-58
-59
-57
-57
-56
-56
-55
-57
-58
-58
-58
-58
-58
-58
-56
-55
-53
-54
-54
-54
-54
-53
-52
-53
-53
-52
-52
-52
-53
-53
-51
-49
-48
-44
-43
-43
-44
-46
-49
-50
-53
-55
-56
-60
-61
-61
-62
-63
-65
-68
-69
-65
-52
-27
13
61
93
81
44
9
-21
-44
-59
-68
-74
-77
-77
-79
-82
-82
-81
-79
-78
-77
-74
-71
-68
-64
-61
-60
-62
-61
-58
-56
-56
-56
-53
-53
-50
-47
-47
-46
-43
-40
-38
-39
-36
-30
-30
-29
-25
-23
-22
-19
-18
-17
-15
-16
-16
-19
-20
-24
-31
-39
-45
-51
-58
-66
-72
-78
-82
-86
-89
-89
-90
-92
-93
-92
-91
-87
-83
-84
-85
-83
-79
-77
-77
-76
-73
-71
-70
-69
-69
-67
-67
-66
-65
-64
-64
-63
-65
-66
-68
-68
-66
-65
-65
-66
-68
-67
-66
-64
-62
-62
-64
-64
-63
-61
-62
-62
-63
-62
-61
-60
-61
-60
-59
-59
-58
-58
-56
-56
-56
-58
-58
-59
-58
-58
-58
-57
-58
-60
-60
-60
-59
-58
-54
-53
-55
-55
-53
-51
-51
-52
-53
-51
-52
-53
-53
-54
-55
-56
-57
-59
-58
-59
-61
-61
-61
-64
-66
-68
-71
-72
-65
-44
-9
39
84
98
70
28
-6
-34
-51
-62
-69
-72
-77
-82
-86
-88
-89
-88
-85
-82
-80
-77
-75
-74
-71
-70
-68
-65
-60
-56
-55
-54
-55
-55
-54
-51
-50
-48
-45
-44
-41
-39
-38
-35
-31
-30
-29
-27
-26
-22
-19
-18
-19
-20
-20
-21
-24
-27
-33
-40
-46
-52
-57
-63
-68
-74
-80
-86
-88
-91
-94
-94
-93
-93
-94
-95
-93
-91
-89
-84
-82
-80
-79
-78
-75
-71
-71
-68
-67
-69
-71
-69
-69
-68
-68
-68
-67
-65
-65
-65
-64
-64
-64
-63
-61
-62
-63
-63
-62
-63
-63
-63
-63
-64
-62
-61
-61
-61
-60
-60
-61
-59
-61
-61
-60
-60
-60
-58
-58
-59
-58
-58
-59
-59
-56
-56
-56
-57
-58
-58
-56
-54
-55
-56
-57
-57
-58
-59
-58
-58
-57
-56
-56
-54
-53
-50
-47
-47
-46
-48
-52
-53
-53
-56
-58
-61
-62
-64
-63
-62
-62
-60
-60
-62
-67
-67
-65
-55
-29
12
62
95
83
43
6
-22
-41
-56
-67
-74
-79
-82
-84
-84
-85
-83
-82
-83
-81
-78
-74
-73
-74
-73
-73
-71
-67
-64
-62
-58
-57
-56
-54
-51
-50
-48
-47
-43
-40
-38
-37
-35
-35
-33
-31
-28
-22
-20
-19
-18
-17
-17
-17
-17
-17
-18
-22
-26
-32
-40
-46
-54
-60
-66
-74
-80
-84
-86
-91
-94
-96
-97
-95
-95
-94
-91
-88
-84
-83
-82
-82
-80
-79
-78
-79
-77
-76
-76
-74
-72
-71
-72
-73
-73
-72
-70
-71
-69
-67
-66
-67
-68
-68
-67
-68
-68
-68
-68
-68
-68
-68
-67
-66
-64
-64
-65
-65
-64
-63
-62
-63
-62
-62
-61
-61
-62
-63
-64
-63
-64
-63
-61
-60
-60
-60
-59
-57
-57
-57
-58
-58
-59
-62
-63
-64
-63
-62
-60
-59
-61
-62
-62
-61
-60
-59
-60
-60
-60
-55
-53
-53
-54
-53
-53
-52
-53
-53
-53
-52
-52
-53
-53
-56
-58
-58
-59
-62
-63
-63
-63
-62
-67
-70
-70
-66
-51
-22
23
69
89
68
29
-6
-31
-50
-64
-74
-78
-81
-82
-84
-87
-88
-88
-88
-88
-87
-85
-81
-79
-78
-76
-73
-70
-67
-64
-63
-60
-59
-55
-53
-54
-55
-53
-51
-49
-47
-45
-42
-38
-35
-33
-31
-28
-23
-21
-19
-15
-15
-18
-18
-17
-17
-23
-29
-34
-40
-47
-54
-59
-65
-72
-77
-81
-84
-87
-89
-90
-91
-90
-91
-91
-90
-89
-86
-85
-85
-83
-80
-79
-78
-75
-73
-72
-70
-71
-71
-70
-69
-68
-66
-66
-68
-65
-66
-66
-67
-67
-66
-66
-63
-62
-63
-64
-64
-63
-63
-62
-63
-63
-63
-63
-62
-62
-61
-62
-61
-62
-61
-60
-60
-59
-59
-58
-58
-57
-57
-57
-56
-54
-53
-53
-54
-55
-54
-54
-55
-56
-56
-56
-56
-58
-58
-57
-56
-54
-53
-53
-51
-50
-47
-47
-46
-43
-44
-45
-46
-48
-52
-55
-57
-56
-57
-58
-60
-61
-60
-59
-61
-65
-66
-62
-48
-23
17
63
90
78
38
2
-26
-45
-60
-69
-75
-76
-78
-78
-80
-81
-79
-77
-77
-75
-74
-73
-73
-74
-71
-68
-66
-64
-63
-62
-60
-56
-54
-50
-47
-45
-43
-41
-37
-37
-36
-34
-34
-33
-31
-30
-27
-26
-24
-21
-20
-17
-16
-15
-16
-17
-19
-23
-29
-35
-40
-50
-59
-66
-72
-76
-82
-87
-90
-92
-94
-95
-94
-94
-93
-90
-85
-82
-81
-78
-79
-79
-78
-77
-75
-72
-69
-68
-70
-73
-72
-71
-70
-69
-68
-67
-66
-65
-63
-63
-64
-64
-64
-64
-65
-64
-64
-64
-62
-61
-61
-61
-61
-60
-59
-60
-61
-61
-62
-62
-60
-59
-58
-58
-58
-58
-58
-56
-55
-56
-55
-56
-56
-57
-58
-56
-55
-55
-55
-55
-54
-55
-54
-52
-52
-52
-51
-50
-47
-47
-46
-45
-44
-46
-47
-48
-53
-56
-58
-60
-60
-59
-58
-60
-61
-64
-66
-69
-70
-70
-61
-39
-5
41
83
95
65
24
-8
-32
-51
-63
-70
-74
-77
-82
-83
-86
-85
-84
-82
-79
-77
-74
-73
-71
-68
-65
-63
-62
-60
-58
-56
-53
-51
-50
-49
-48
-46
-45
-44
-42
-41
-40
-39
-35
-29
-25
-25
-24
-22
-21
-19
-17
-16
-15
-12
-11
-15
-22
-31
-39
-46
-54
-60
-68
-72
-74
-75
-81
-89
-93
-96
-97
-97
-96
-95
-91
-86
-85
-86
-86
-87
-86
-85
-83
-80
-77
-76
-75
-72
-69
-69
-69
-68
-69
-69
-67
-65
-66
-67
-66
-65
-64
-64
-64
-64
-64
-65
-63
-62
-61
-61
-63
-63
-62
-62
-62
-63
-63
-63
-61
-60
-60
-60
-59
-60
-61
-62
-62
-60
-59
-59
-59
-60
-59
-57
-57
-56
-57
-57
-57
-57
-55
-55
-56
-56
-54
-55
-55
-52
-51
-51
-53
-52
-51
-52
-52
-51
-50
-49
-49
-50
-53
-56
-58
-60
-62
-62
-63
-63
-62
-63
-63
-65
-69
-71
-68
-56
-31
8
57
90
83
46
8
-22
-44
-58
-68
-76
-80
-82
-82
-84
-84
-81
-80
-82
-84
-83
-82
-79
-75
-76
-74
-70
-68
-67
-64
-62
-61
-58
-54
-53
-52
-47
-44
-41
-41
-41
-39
-34
-34
-32
-31
-28
-25
-24
-21
-20
-17
-14
-11
-12
-14
-19
-22
-28
-35
-44
-50
-57
-65
-72
-79
-84
-87
-90
-93
-93
-94
-92
-93
-93
-93
-93
-91
-87
-85
-83
-81
-78
-77
-74
-74
-72
-72
-71
-68
-66
-65
-65
-65
-66
-66
-65
-66
-67
-68
-67
-66
-65
-62
-62
-62
-63
-64
-62
-61
-62
-62
-62
-61
-61
-61
-61
-62
-62
-61
-60
-59
-59
-59
-59
-59
-59
-58
-59
-57
-56
-56
-57
-58
-57
-56
-56
-55
-54
-53
-52
-54
-55
-56
-56
-56
-56
-57
-58
-57
-58
-59
-59
-59
-58
-57
-56
-55
-55
-54
-53
-51
-51
-50
-50
-52
-53
-57
-59
-59
-61
-61
-64
-66
-66
-66
-64
-66
-69
-73
-73
-69
-57
-31
12
61
91
82
44
6
-25
-48
-62
-73
-79
-82
-84
-86
-87
-88
-89
-88
-86
-82
-82
-81
-80
-78
-77
-75
-73
-70
-68
-67
-65
-62
-61
-58
-57
-53
-50
-49
-47
-46
-46
-45
-42
-41
-39
-36
-34
-30
-26
-22
-19
-18
-17
-17
-16
-17
-21
-26
-29
-34
-45
-53
-62
-68
-74
-80
-87
-92
-95
-97
-97
-97
-96
-94
-92
-91
-89
-88
-86
-85
-84
-82
-81
-80
-79
-77
-74
-74
-72
-71
-69
-70
-69
-66
-66
-66
-66
-64
-63
-66
-67
-66
-64
-61
-63
-67
-69
-70
-69
-68
-66
-65
-65
-65
-63
-64
-63
-62
-62
-62
-62
-62
-61
-62
-60
-59
-60
-59
-58
-58
-58
-59
-59
-58
-58
-58
-58
-58
-56
-55
-55
-55
-56
-56
-56
-55
-56
-55
-54
-51
-51
-52
-51
-51
-50
-49
-50
-51
-51
-52
-52
-53
-55
-57
-59
-61
-62
-62
-63
-63
-63
-64
-64
-68
-70
-66
-54
-33
4
50
86
81
45
8
-20
-42
-57
-66
-72
-76
-80
-83
-82
-79
-81
-82
-82
-81
-81
-79
-76
-73
-71
-68
-66
-65
-61
-59
-58
-56
-53
-51
-51
-49
-47
-45
-41
-39
-38
-37
-35
-33
-31
-25
-23
-21
-20
-19
-16
-15
-15
-16
-16
-16
-19
-23
-28
-34
-40
-49
-59
-66
-71
-76
-82
-87
-89
-89
-89
-88
-89
-89
-88
-87
-85
-82
-79
-79
-77
-76
-74
-72
-70
-70
-68
-67
-67
-66
-66
-65
-66
-66
-65
-65
-64
-63
-62
-62
-63
-62
-63
-65
-65
-65
-64
-63
-61
-59
-59
-60
-63
-63
-63
-63
-61
-60
-59
-59
-59
-60
-57
-54
-54
-56
-57
-58
-59
-60
-60
-59
-59
-58
-57
-57
-60
-60
-59
-57
-55
-53
-52
-50
-51
-51
-50
-50
-48
-48
-47
-46
-47
-49
-51
-54
-54
-57
-60
-61
-62
-61
-61
-62
-62
-67
-69
-66
-55
-29
12
60
91
82
46
8
-23
-46
-59
-69
-77
-82
-85
-86
-86
-85
-84
-83
-82
-80
-78
-75
-72
-69
-67
-65
-65
-64
-62
-60
-57
-55
-53
-51
-48
-47
-44
-42
-41
-39
-39
-37
-34
-33
-32
-29
-28
-26
-23
-22
-20
-16
-17
-17
-16
-16
-18
-24
-30
-36
-44
-52
-59
-67
-72
-77
-82
-85
-88
-91
-93
-93
-94
-94
-93
-93
-90
-87
-84
-83
-82
-80
-77
-75
-73
-71
-70
-70
-67
-64
-64
-63
-65
-66
-65
-63
-63
-64
-65
-66
-67
-67
-66
-65
-64
-62
-60
-61
-62
-62
-62
-61
-60
-60
-61
-61
-63
-64
-63
-61
-62
-64
-64
-63
-63
-63
-61
-61
-61
-62
-61
-60
-59
-58
-56
-57
-58
-59
-60
-59
-58
-58
-56
-55
-56
-58
-58
-57
-55
-53
-53
-53
-51
-50
-49
-50
-49
-49
-51
-52
-53
-55
-57
-57
-59
-62
-64
-64
-63
-60
-60
-65
-69
-68
-62
-44
-10
36
80
96
71
31
-5
-34
-52
-65
-72
-75
-80
-83
-85
-88
-89
-88
-87
-85
-81
-75
-72
-74
-75
-75
-74
-71
-68
-66
-63
-62
-57
-54
-48
-46
-47
-49
-49
-48
-45
-43
-40
-38
-35
-31
-25
-20
-20
-22
-23
-23
-22
-20
-18
-18
-18
-19
-23
-29
-37
-45
-54
-62
-70
-75
-78
-80
-84
-90
-92
-93
-94
-94
-92
-89
-86
-85
-83
-82
-81
-82
-81
-80
-79
-78
-74
-72
-70
-70
-68
-67
-66
-64
-65
-65
-64
-64
-63
-63
-63
-65
-67
-68
-69
-71
-71
-70
-70
-68
-68
-66
-65
-65
-65
-66
-67
-66
-63
-61
-62
-64
-63
-62
-62
-64
-65
-65
-65
-64
-65
-64
-64
-61
-61
-60
-58
-59
-60
-59
-57
-57
-59
-60
-61
-60
-60
-58
-57
-58
-59
-60
-60
-61
-60
-59
-58
-57
-56
-54
-53
-51
-51
-50
-49
-52
-54
-52
-54
-57
-60
-61
-63
-64
-65
-66
-65
-66
-66
-66
-69
-70
-70
-65
-50
-20
27
73
92
69
29
-6
-34
-53
-63
-70
-76
-81
-85
-86
-84
-84
-86
-85
-84
-83
-81
-77
-73
-72
-71
-69
-68
-63
-63
-61
-61
-58
-56
-53
-50
-48
-48
-47
-44
-41
-40
-38
-36
-34
-31
-28
-24
-22
-19
-18
-16
-13
-13
-13
-16
-18
-21
-25
-29
-38
-49
-57
-64
-70
-74
-79
-83
-86
-87
-89
-89
-90
-93
-91
-89
-91
-91
-89
-89
-87
-84
-81
-78
-76
-73
-70
-69
-68
-68
-70
-67
-66
-67
-68
-68
-68
-65
-64
-64
-61
-61
-61
-63
-64
-64
-63
-64
-61
-58
-56
-58
-59
-61
-62
-63
-63
-63
-63
-62
-62
-60
-59
-58
-58
-55
-55
-54
-52
-53
-53
-51
-54
-57
-58
-59
-59
-59
-59
-59
-58
-58
-57
-57
-54
-54
-54
-53
-52
-51
-51
-52
-48
-46
-47
-48
-50
-51
-51
-52
-51
-53
-54
-55
-57
-59
-59
-59
-59
-60
-61
-61
-65
-68
-68
-62
-44
-12
32
77
94
71
31
-3
-27
-46
-57
-65
-73
-76
-81
-83
-82
-82
-83
-82
-80
-78
-78
-78
-75
-73
-70
-67
-65
-61
-57
-53
-52
-49
-50
-51
-52
-51
-51
-49
-46
-45
-42
-41
-37
-32
-28
-27
-25
-21
-15
-12
-12
-14
-15
-16
-18
-22
-25
-29
-35
-42
-50
-57
-63
-68
-72
-77
-82
-87
-91
-93
-94
-93
-92
-93
-93
-92
-91
-89
-87
-83
-80
-78
-77
-76
-76
-75
-73
-71
-66
-65
-66
-67
-68
-68
-67
-64
-62
-62
-64
-65
-65
-65
-65
-65
-62
-61
-60
-61
-63
-64
-64
-64
-63
-63
-63
-63
-56
-52
-55
-57
-61
-63
-64
-64
-63
-63
-62
-60
-56
-53
-54
-58
-61
-61
-62
-61
-61
-60
-60
-59
-59
-54
-46
-49
-54
-58
-59
-60
-59
-59
-57
-56
-52
-49
-49
-51
-51
-51
-50
-50
-50
-50
-48
-48
-48
-50
-57
-61
-64
-64
-65
-64
-61
-61
-65
-67
-70
-68
-59
-40
-4
45
86
96
64
25
-9
-34
-53
-63
-69
-76
-82
-87
-89
-88
-86
-85
-83
-81
-81
-78
-74
-70
-70
-68
-67
-65
-62
-58
-56
-57
-56
-55
-55
-53
-51
-48
-47
-45
-42
-39
-38
-38
-36
-34
-32
-30
-28
-24
-20
-18
-18
-16
-17
-20
-23
-25
-28
-34
-39
-47
-54
-62
-68
-73
-77
-83
-88
-90
-91
-91
-90
-91
-92
-93
-93
-91
-88
-86
-83
-82
-80
-79
-78
-76
-75
-74
-70
-68
-66
-64
-63
-62
-65
-66
-66
-64
-63
-63
-63
-63
-63
-62
-61
-62
-60
-60
-60
-60
-62
-66
-68
-70
-70
-69
-68
-68
-64
-61
-62
-65
-66
-67
-67
-65
-64
-62
-61
-61
-61
-62
-62
-62
-63
-63
-62
-61
-60
-60
-59
-60
-62
-63
-63
-63
-64
-63
-62
-61
-59
-58
-61
-63
-62
-62
-61
-59
-56
-55
-57
-55
-52
-51
-51
-51
-51
-52
-53
-55
-56
-57
-59
-63
-65
-66
-64
-63
-64
-69
-73
-75
-74
-64
-41
-2
47
86
85
49
10
-20
-41
-54
-66
-75
-81
-83
-85
-86
-88
-88
-87
-86
-84
-81
-79
-76
-74
-72
-69
-63
-59
-55
-54
-57
-59
-61
-61
-60
-58
-54
-53
-50
-47
-44
-42
-36
-31
-30
-29
-31
-31
-30
-27
-25
-22
-20
-19
-20
-20
-21
-24
-28
-33
-39
-45
-52
-58
-64
-69
-73
-81
-88
-91
-93
-96
-96
-95
-94
-94
-93
-91
-89
-86
-83
-81
-80
-78
-76
-75
-74
-73
-73
-73
-72
-70
-67
-67
-67
-67
-67
-68
-70
-69
-67
-65
-64
-64
-64
-65
-62
-62
-65
-65
-64
-63
-63
-63
-63
-62
-62
-58
-56
-58
-59
-59
-60
-60
-61
-59
-57
-57
-55
-52
-51
-52
-54
-56
-56
-55
-55
-55
-55
-54
-54
-54
-54
-56
-57
-56
-55
-54
-53
-52
-50
-48
-46
-48
-48
-48
-48
-51
-53
-55
-57
-60
-62
-62
-62
-63
-62
-62
-63
-66
-68
-68
-60
-39
-6
41
83
88
56
19
-11
-37
-55
-67
-75
-79
-80
-82
-83
-85
-84
-83
-82
-81
-78
-75
-71
-69
-66
-64
-63
-61
-60
-58
-56
-54
-53
-51
-48
-45
-44
-45
-43
-40
-39
-38
-35
-32
-30
-28
-26
-25
-22
-18
-17
-16
-14
-13
-15
-17
-20
-21
-26
-32
-36
-43
-51
-58
-66
-74
-79
-84
-86
-89
-91
-91
-91
-90
-89
-90
-91
-90
-89
-85
-82
-78
-77
-78
-77
-75
-74
-72
-69
-69
-68
-68
-67
-67
-67
-68
-69
-68
-68
-67
-66
-66
-65
-65
-66
-66
-65
-64
-65
-62
-62
-63
-62
-63
-63
-63
-64
-63
-64
-62
-61
-61
-61
-60
-58
-57
-57
-55
-56
-57
-58
-57
-57
-55
-54
-55
-54
-53
-52
-50
-48
-46
-45
-48
-47
-48
-49
-49
-50
-51
-55
-58
-60
-60
-60
-60
-61
-61
-62
-66
-69
-68
-61
-46
-20
21
67
93
77
39
3
-26
-47
-60
-68
-74
-79
-82
-84
-85
-85
-84
-84
-82
-79
-75
-71
-70
-69
-70
-70
-69
-68
-64
-63
-60
-58
-57
-53
-49
-47
-45
-44
-42
-42
-40
-38
-35
-33
-31
-28
-24
-20
-15
-13
-14
-14
-15
-16
-18
-19
-22
-26
-30
-36
-41
-50
-61
-70
-75
-82
-87
-90
-91
-92
-90
-88
-90
-93
-95
-94
-93
-91
-89
-88
-85
-82
-77
-73
-70
-72
-74
-75
-74
-72
-71
-69
-68
-67
-65
-61
-59
-61
-64
-67
-67
-67
-67
-66
-66
-66
-62
-56
-53
-57
-62
-65
-65
-65
-65
-63
-62
-60
-59
-59
-59
-59
-60
-60
-60
-60
-59
-56
-54
-52
-54
-55
-56
-55
-56
-54
-53
-54
-54
-53
-53
-52
-51
-50
-48
-46
-47
-49
-50
-51
-52
-51
-52
-52
-55
-57
-60
-60
-61
-60
-61
-62
-64
-68
-70
-65
-51
-24
18
67
98
85
43
5
-24
-43
-58
-69
-77
-81
-83
-84
-84
-83
-83
-83
-83
-82
-80
-78
-77
-75
-74
-70
-65
-63
-64
-64
-62
-61
-59
-57
-55
-50
-47
-46
-45
-42
-38
-37
-37
-35
-33
-32
-31
-29
-29
-28
-25
-21
-20
-20
-20
-21
-24
-28
-33
-40
-48
-55
-64
-72
-77
-80
-85
-90
-95
-98
-99
-99
-99
-98
-96
-93
-92
-91
-88
-86
-85
-84
-83
-82
-80
-79
-77
-76
-74
-69
-67
-68
-70
-71
-69
-70
-68
-67
-69
-70
-69
-68
-68
-68
-68
-67
-67
-67
-67
-68
-68
-67
-65
-64
-64
-65
-64
-62
-61
-62
-63
-64
-65
-64
-62
-62
-61
-60
-57
-56
-60
-61
-61
-62
-62
-60
-59
-59
-59
-58
-57
-55
-53
-53
-54
-53
-50
-49
-48
-47
-50
-51
-52
-52
-53
-54
-58
-61
-63
-64
-63
-63
-64
-63
-62
-65
-69
-72
-71
-66
-51
-21
24
70
93
72
31
-3
-33
-53
-67
-75
-80
-83
-85
-86
-86
-84
-81
-79
-79
-78
-78
-75
-72
-71
-70
-70
-68
-67
-64
-61
-58
-56
-53
-52
-49
-47
-43
-40
-40
-41
-40
-38
-36
-32
-29
-25
-23
-23
-22
-20
-19
-17
-16
-16
-17
-20
-23
-28
-34
-40
-48
-54
-61
-68
-76
-83
-88
-91
-93
-93
-95
-95
-94
-95
-93
-92
-90
-89
-87
-84
-81
-81
-80
-78
-76
-77
-74
-73
-73
-72
-73
-71
-70
-69
-67
-65
-65
-66
-65
-62
-62
-64
-63
-62
-64
-63
-64
-63
-63
-62
-62
-61
-61
-61
-59
-58
-57
-57
-55
-52
-53
-55
-58
-58
-58
-58
-58
-57
-55
-54
-55
-55
-55
-54
-53
-53
-52
-51
-50
-49
-49
-49
-49
-49
-48
-47
-48
-47
-46
-48
-50
-51
-54
-56
-58
-61
-60
-58
-61
-62
-63
-63
-67
-71
-72
-67
-50
-19
25
71
94
75
36
2
-25
-46
-59
-68
-74
-77
-78
-81
-82
-84
-84
-84
-82
-79
-77
-74
-72
-71
-69
-67
-63
-61
-60
-58
-55
-54
-53
-51
-49
-48
-46
-45
-42
-40
-37
-36
-33
-31
-29
-26
-22
-20
-19
-17
-14
-13
-13
-14
-15
-19
-24
-28
-33
-40
-48
-56
-64
-70
-77
-83
-86
-88
-91
-92
-92
-92
-92
-90
-89
-90
-90
-90
-89
-87
-84
-82
-79
-77
-74
-73
-71
-69
-69
-68
-66
-64
-64
-65
-64
-64
-65
-67
-68
-68
-67
-65
-64
-65
-65
-65
-64
-61
-61
-63
-64
-63
-64
-64
-62
-62
-61
-60
-60
-60
-58
-60
-61
-60
-60
-60
-58
-56
-57
-57
-58
-59
-59
-60
-60
-59
-59
-60
-59
-58
-58
-58
-57
-56
-55
-53
-50
-49
-48
-48
-45
-44
-45
-48
-50
-51
-53
-54
-57
-58
-58
-58
-60
-62
-63
-63
-64
-67
-70
-67
-53
-24
17
65
98
89
47
8
-23
-44
-59
-70
-76
-80
-84
-86
-87
-87
-86
-85
-82
-82
-81
-79
-79
-78
-76
-74
-71
-70
-68
-65
-64
-63
-60
-59
-54
-54
